x,y,z
-69.57,73.46,145.216
-69.445,73.027,143.756
-68.826,71.596,143.522
-69.206,70.842,142.589
-68.681,74.091,142.949
-68.927,74.041,141.419
-70.705,74.174,140.815
-71.081,75.966,141.04
-67.835,71.243,144.332
-67.29,69.92,144.227
-68.35,68.982,144.816
-68.607,67.893,144.291
-65.969,69.839,144.967
-64.747,70.069,144.04
-64.903,70.244,142.8
-63.613,70.052,144.571
-69.029,69.459,145.86
-70.113,68.72,146.527
-71.274,68.518,145.567
-71.907,67.458,145.551
-70.605,69.474,147.747
-70.459,70.873,147.49
-69.767,69.117,148.966
-71.56,69.535,144.766
-72.616,69.411,143.772
-72.3,68.232,142.845
-73.148,67.358,142.619
-72.732,70.707,142.959
-73.057,71.836,143.93
-73.757,70.581,141.82
-73.705,72.974,143.277
-71.063,68.163,142.365
-70.7,67.078,141.461
-70.756,65.727,142.17
-71.287,64.75,141.607
-69.349,67.323,140.858
-70.243,65.68,143.403
-70.261,64.463,144.229
-71.722,63.947,144.414
-71.995,62.723,144.325
-69.587,64.738,145.563
-72.672,64.879,144.576
-74.083,64.496,144.691
-74.67,63.944,143.409
-75.327,62.879,143.432
-74.94,65.636,145.204
-74.62,65.927,146.64
-75.417,67.089,147.153
-74.991,67.416,148.51
-74.513,68.602,148.869
-74.414,69.565,147.973
-74.097,68.815,150.109
-74.44,64.635,142.295
-74.971,64.163,141.002
-74.466,62.748,140.711
-75.237,61.843,140.352
-74.579,65.085,139.926
-73.173,62.552,140.936
-72.512,61.271,140.737
-73.121,60.177,141.616
-73.363,59.037,141.15
-71.055,61.455,141.111
-69.956,60.628,140.469
-70.059,60.768,138.958
-68.643,61.198,140.963
-73.31,60.51,142.898
-73.915,59.603,143.875
-75.306,59.166,143.441
-75.615,57.971,143.428
-74.063,60.264,145.212
-72.772,60.534,145.748
-74.793,59.335,146.158
-76.135,60.132,143.055
-77.492,59.831,142.611
-77.549,58.992,141.357
-78.37,58.054,141.261
-78.284,61.097,142.372
-79.631,60.759,141.84
-78.355,61.913,143.663
-76.705,59.334,140.375
-76.685,58.579,139.115
-76.214,57.159,139.325
-76.799,56.24,138.757
-75.827,59.235,138.06
-76.242,60.633,137.687
-75.346,61.113,136.169
-73.846,61.732,136.815
-75.185,56.955,140.154
-74.719,55.58,140.373
-75.791,54.746,141.102
-75.904,53.543,140.876
-73.366,55.536,141.096
-72.252,56.297,140.416
-70.876,56.205,141.141
-70.156,54.982,140.797
-69.747,54.045,141.667
-69.966,54.175,142.982
-69.15,52.931,141.217
-76.6,55.398,141.938
-77.683,54.741,142.675
-78.763,54.316,141.681
-79.317,53.21,141.767
-78.268,55.702,143.691
-79.085,55.195,140.735
-80.104,54.835,139.767
-79.67,53.651,138.898
-80.511,52.888,138.428
-80.432,56.015,138.872
-81.193,57.393,139.671
-78.368,53.486,138.671
-77.879,52.38,137.836
-78.046,51.059,138.548
-77.724,50.013,138.01
-76.435,52.58,137.477
-78.483,51.133,139.795
-78.725,49.972,140.632
-80.085,49.338,140.311
-80.272,48.138,140.464
-78.695,50.441,142.076
-77.348,50.412,142.558
-79.563,49.639,142.929
-81.026,50.156,139.847
-82.383,49.734,139.513
-82.475,48.825,138.297
-83.262,49.08,137.374
-83.252,50.976,139.316
-83.722,51.696,140.599
-83.093,51.145,141.813
-83.433,53.158,140.539
-81.735,47.719,138.338
-81.688,46.787,137.226
-83.038,46.142,136.969
-83.49,46.036,135.846
-80.572,45.725,137.442
-79.383,45.737,136.414
-78.074,46.413,136.933
-77.999,47.622,137.15
-77.033,45.622,137.072
-83.764,45.823,138.015
-85.026,45.159,137.78
-86.137,45.662,138.713
-85.921,46.555,139.555
-84.759,43.652,137.834
-85.905,42.726,137.919
-85.527,41.56,138.796
-84.49,40.923,138.468
-86.212,41.329,139.838
-87.341,45.142,138.49
-88.524,45.54,139.238
-88.63,45.099,140.705
-88.808,45.944,141.596
-89.78,45.123,138.457
-88.488,43.799,140.965
-88.647,43.298,142.334
-87.427,43.116,143.254
-87.589,42.749,144.42
-89.538,42.034,142.345
-89.05,40.829,141.507
-89.98,39.623,141.736
-90.004,39.23,143.155
-90.976,38.542,143.758
-92.049,38.147,143.078
-90.868,38.24,145.055
-86.229,43.398,142.753
-85.01,43.269,143.544
-85.028,44.078,144.838
-85.8,45.013,144.972
-83.766,43.633,142.688
-83.942,44.944,141.88
-83.558,42.516,141.686
-83.723,46.282,142.602
-84.224,43.707,145.822
-84.215,44.486,147.047
-82.965,45.353,147.126
-81.813,44.887,146.953
-84.377,43.633,148.332
-85.41,42.548,148.109
-83.045,43.089,148.818
-83.21,46.627,147.39
-82.142,47.584,147.467
-81.325,47.554,148.726
-81.818,47.212,149.783
-82.699,48.991,147.275
-82.942,49.415,145.823
-82.025,48.584,144.88
-84.419,49.26,145.484
-80.049,47.865,148.582
-79.139,47.985,149.698
-79.758,49.253,150.387
-80.333,50.123,149.713
-77.757,48.202,149.083
-76.607,48.56,149.979
-75.361,49.008,149.159
-75.505,49.652,148.081
-74.222,48.722,149.596
-79.772,49.305,151.715
-80.399,50.433,152.44
-79.871,51.81,152.071
-80.606,52.789,151.971
-80.248,50.224,153.907
-78.559,51.871,152.002
-77.808,53.044,151.633
-78.445,53.715,150.365
-78.739,54.909,150.337
-76.382,52.517,151.399
-75.408,53.596,151.016
-74.822,53.567,149.92
-75.204,54.56,151.917
-78.738,52.918,149.349
-79.347,53.399,148.109
-80.714,54.039,148.301
-81.023,55.063,147.689
-79.518,52.225,147.099
-80.223,52.658,145.846
-78.185,51.626,146.791
-81.577,53.378,149.058
-82.912,53.908,149.291
-82.889,55.202,150.09
-83.695,56.093,149.854
-83.777,52.878,149.989
-84.324,51.807,149.085
-85.229,50.68,150.188
-86.773,50.209,149.125
-81.974,55.304,151.041
-81.865,56.505,151.839
-81.54,57.715,150.957
-82.149,58.767,151.089
-80.792,56.296,152.866
-80.465,57.517,153.657
-79.168,57.337,154.432
-78.734,56.161,154.613
-78.569,58.363,154.847
-80.625,57.523,150.008
-80.183,58.559,149.069
-81.253,58.913,148.019
-81.547,60.101,147.791
-78.897,58.076,148.328
-77.713,58.012,149.292
-78.568,58.96,147.128
-76.626,57.07,148.793
-81.777,57.892,147.332
-82.795,58.108,146.318
-84.005,58.779,146.905
-84.611,59.637,146.276
-83.227,56.805,145.667
-82.174,56.224,144.731
-82.768,55.103,143.919
-81.652,57.32,143.826
-84.356,58.374,148.118
-85.493,58.947,148.8
-85.369,60.443,148.913
-86.227,61.178,148.421
-84.304,60.895,149.557
-84.068,62.325,149.728
-83.926,63.092,148.42
-84.516,64.172,148.232
-82.79,62.566,150.513
-82.747,61.576,151.665
-82.77,64.002,151.056
-81.578,61.728,152.576
-83.102,62.546,147.535
-82.828,63.18,146.262
-84.071,63.319,145.42
-84.392,64.403,144.957
-81.766,62.406,145.522
-84.809,62.234,145.26
-86.013,62.269,144.437
-87.059,63.194,145.017
-87.767,63.883,144.282
-86.586,60.876,144.237
-85.601,60.052,143.396
-87.949,60.953,143.566
-86.076,58.673,143.116
-87.138,63.235,146.341
-88.094,64.098,146.989
-87.7,65.575,146.691
-88.53,66.332,146.186
-88.187,63.746,148.496
-89.17,64.655,149.276
-90.365,64.41,149.257
-88.657,65.681,149.983
-86.444,65.982,146.929
-86.049,67.375,146.644
-86.291,67.71,145.18
-86.874,68.733,144.838
-84.583,67.611,146.937
-84.307,68.227,148.263
-84.987,69.565,148.413
-84.105,70.692,148.137
-84.395,71.951,148.458
-85.542,72.233,149.054
-83.528,72.928,148.209
-85.868,66.798,144.32
-86.004,66.968,142.905
-87.449,67.189,142.48
-87.757,68.198,141.859
-85.41,65.764,142.196
-85.419,65.909,140.698
-84.527,66.786,140.055
-86.356,65.221,139.922
-84.589,66.974,138.676
-86.421,65.396,138.549
-85.542,66.269,137.937
-85.623,66.439,136.585
-88.339,66.253,142.797
-89.749,66.391,142.43
-90.361,67.687,143.001
-91.137,68.382,142.333
-90.527,65.163,142.873
-90.263,63.964,141.984
-90.546,62.835,142.351
-89.739,64.209,140.787
-89.911,68.086,144.181
-90.437,69.298,144.765
-90.096,70.595,144.063
-90.971,71.434,143.877
-88.825,70.788,143.726
-88.375,72.013,143.061
-88.618,72.033,141.555
-88.57,73.082,140.916
-86.879,72.208,143.3
-86.361,72.539,144.693
-84.866,72.734,144.601
-86.997,73.814,145.183
-88.924,70.867,141.013
-89.095,70.647,139.585
-90.51,70.375,139.122
-90.848,70.643,137.973
-88.191,69.437,139.242
-86.917,69.91,138.813
-88.795,68.47,138.278
-91.292,69.746,139.992
-92.673,69.38,139.724
-92.767,68.19,138.815
-93.756,68.01,138.095
-93.482,70.553,139.166
-94.006,71.626,140.129
-93.203,71.719,141.428
-93.989,72.964,139.38
-91.715,67.393,138.784
-91.783,66.185,137.987
-92.242,65.077,138.948
-92.416,65.329,140.156
-90.462,65.917,137.29
-90.39,66.717,136.009
-89.97,65.836,134.845
-88.508,65.685,134.788
-87.751,66.042,133.742
-88.296,66.55,132.633
-86.426,66.021,133.843
-92.492,63.874,138.456
-92.967,62.861,139.379
-92.177,61.594,139.242
-92.687,60.54,138.821
-90.911,61.691,139.599
-90.023,60.551,139.502
-90.401,59.548,140.62
-90.679,59.962,141.728
-88.565,61.055,139.654
-87.583,59.926,139.574
-88.277,62.083,138.599
-90.449,58.251,140.316
-90.758,57.215,141.31
-89.416,56.629,141.724
-88.506,56.631,140.922
-91.43,56.016,140.671
-92.493,56.467,139.876
-92.0,55.068,141.73
-89.337,56.019,142.906
-88.111,55.376,143.335
-87.921,54.037,142.665
-86.802,53.586,142.544
-88.073,55.162,144.833
-88.075,56.44,145.639
-87.461,56.128,147.274
-86.509,54.451,147.059
-88.994,53.364,142.273
-88.831,52.081,141.606
-89.659,52.105,140.328
-90.838,51.747,140.324
-89.254,50.917,142.506
-88.86,49.534,141.94
-87.484,49.106,142.437
-87.385,49.284,143.898
-87.659,48.35,144.817
-88.053,47.136,144.443
-87.554,48.632,146.121
-89.057,52.564,139.225
-89.694,52.671,137.909
-90.011,51.321,137.273
-89.2,50.412,137.323
-88.63,53.388,137.09
-87.732,54.037,138.132
-87.654,53.003,139.165
-91.184,51.185,136.667
-91.56,49.936,135.997
-91.887,50.222,134.521
-91.246,49.676,133.612
-92.726,49.198,136.735
-93.803,50.107,137.021
-92.222,48.661,138.058
-92.814,51.14,134.278
-93.167,51.493,132.917
-92.079,52.317,132.23
-91.26,52.949,132.88
-94.464,52.307,132.907
-94.296,53.579,133.511
-92.152,52.377,130.906
-91.226,53.159,130.114
-91.331,54.623,130.511
-90.33,55.339,130.61
-91.576,53.021,128.637
-90.897,53.981,127.659
-89.403,53.657,127.598
-91.544,53.848,126.293
-92.547,55.085,130.75
-92.71,56.483,131.118
-91.984,56.826,132.414
-91.424,57.928,132.553
-94.165,56.831,131.207
-91.944,55.867,133.339
-91.27,56.092,134.616
-89.76,56.062,134.486
-89.044,56.781,135.19
-91.731,55.081,135.642
-93.152,55.3,136.042
-93.702,54.189,136.912
-94.449,54.451,137.844
-93.372,52.941,136.587
-89.284,55.203,133.596
-87.867,55.079,133.32
-87.356,56.354,132.645
-86.361,56.93,133.08
-87.609,53.836,132.48
-87.728,52.574,133.302
-87.285,51.348,132.562
-88.285,50.852,131.617
-88.142,50.852,130.295
-87.053,51.333,129.731
-89.069,50.32,129.536
-88.106,56.862,131.673
-87.719,58.092,131.003
-87.613,59.221,132.008
-86.631,59.978,132.058
-88.749,58.473,129.964
-88.65,57.65,128.712
-87.688,56.916,128.49
-89.647,57.771,127.874
-88.62,59.301,132.858
-88.678,60.351,133.864
-87.465,60.299,134.813
-86.886,61.337,135.151
-90.007,60.22,134.603
-90.38,61.399,135.437
-91.25,62.376,134.704
-91.178,62.403,133.431
-91.99,63.113,135.432
-87.059,59.097,135.221
-85.902,58.973,136.109
-84.632,59.333,135.35
-83.746,60.014,135.888
-85.761,57.566,136.668
-84.591,57.477,137.633
-84.44,55.887,138.441
-85.186,56.355,139.958
-84.55,58.87,134.099
-83.41,59.18,133.264
-83.301,60.695,133.076
-82.197,61.258,133.141
-83.488,58.505,131.905
-82.308,58.826,131.044
-81.063,58.265,131.326
-82.403,59.785,130.04
-79.924,58.663,130.63
-81.273,60.196,129.335
-80.03,59.639,129.629
-84.434,61.367,132.863
-84.399,62.81,132.698
-83.901,63.491,133.946
-83.251,64.528,133.864
-85.749,63.351,132.321
-86.219,62.905,130.973
-85.308,62.546,129.978
-87.584,62.844,130.687
-85.754,62.136,128.721
-88.031,62.434,129.434
-87.124,62.079,128.449
-84.14,62.875,135.105
-83.686,63.455,136.367
-82.165,63.376,136.394
-81.487,64.297,136.822
-84.271,62.692,137.558
-83.74,63.209,138.868
-84.155,62.228,140.274
-83.27,60.652,139.99
-81.635,62.255,135.932
-80.199,62.061,135.879
-79.56,63.015,134.868
-78.525,63.647,135.159
-79.932,60.642,135.501
-80.247,59.547,136.865
-80.196,63.15,133.702
-79.719,64.071,132.682
-79.661,65.491,133.261
-78.653,66.191,133.129
-80.634,64.02,131.472
-80.269,64.856,130.236
-78.815,64.712,129.854
-81.15,64.395,129.086
-80.711,65.9,133.966
-80.732,67.235,134.57
-79.591,67.431,135.534
-78.97,68.492,135.576
-82.035,67.478,135.343
-83.129,68.076,134.485
-82.829,68.635,133.408
-84.302,67.995,134.895
-79.355,66.41,136.345
-78.315,66.455,137.352
-76.931,66.48,136.752
-76.064,67.205,137.241
-78.482,65.29,138.306
-79.709,65.439,139.181
-79.824,64.149,140.406
-80.948,64.958,141.5
-76.723,65.701,135.69
-75.444,65.67,134.984
-75.193,67.076,134.366
-74.183,67.706,134.653
-75.5,64.587,133.908
-74.224,64.373,133.071
-74.17,65.408,131.583
-72.552,66.102,131.674
-76.167,67.629,133.642
-75.975,68.943,133.04
-75.734,70.031,134.058
-74.863,70.878,133.864
-77.138,69.319,132.114
-77.365,68.291,130.992
-78.637,68.551,130.247
-76.154,68.243,130.048
-76.453,70.002,135.17
-76.253,71.044,136.188
-74.882,70.951,136.844
-74.223,71.963,137.061
-77.367,71.027,137.248
-78.61,71.346,136.629
-74.422,69.736,137.123
-73.11,69.587,137.749
-71.992,69.996,136.783
-70.963,70.496,137.225
-72.898,68.143,138.212
-72.189,69.745,135.483
-71.207,70.07,134.454
-71.252,71.53,134.032
-70.322,72.015,133.395
-71.383,69.179,133.257
-72.326,72.221,134.385
-72.464,73.632,134.058
-72.898,73.893,132.632
-72.736,74.992,132.119
-73.513,72.897,132.018
-73.973,72.97,130.638
-75.464,73.253,130.489
-76.297,72.805,131.265
-73.717,71.618,129.945
-72.232,71.278,129.985
-74.283,71.592,128.543
-71.945,69.888,129.519
-75.806,73.969,129.436
-77.189,74.256,129.14
-77.356,73.721,127.698
-76.897,74.36,126.773
-77.419,75.761,129.256
-78.78,76.203,128.708
-78.983,77.386,128.468
-79.72,75.261,128.516
-77.963,72.541,127.523
-78.114,71.926,126.208
-78.941,72.628,125.172
-78.735,72.399,123.961
-78.724,70.482,126.217
-77.679,69.455,126.096
-79.644,70.261,127.378
-79.94,73.385,125.605
-80.793,74.034,124.627
-81.909,73.083,124.241
-81.981,71.945,124.723
-82.801,73.514,123.358
-83.921,72.659,122.944
-83.537,71.517,122.028
-83.714,71.591,120.816
-84.855,73.646,122.255
-83.865,74.596,121.594
-82.837,74.821,122.683
-83.088,70.421,122.611
-82.689,69.283,121.798
-83.804,68.262,121.658
-83.722,67.335,120.835
-81.497,68.584,122.439
-81.888,68.07,123.828
-80.383,69.564,122.611
-80.749,67.514,124.643
-84.873,68.439,122.423
-85.907,67.426,122.389
-87.309,67.871,122.703
-87.541,68.774,123.514
-85.506,66.31,123.371
-86.479,65.298,123.449
-88.269,67.274,122.009
-89.691,67.593,122.22
-90.205,66.841,123.471
-91.252,67.163,124.014
-90.353,67.062,120.939
-89.495,65.877,120.547
-88.072,66.372,120.852
-89.417,65.872,123.936
-89.758,65.037,125.074
-89.088,65.446,126.353
-89.582,65.147,127.432
-89.411,63.571,124.771
-90.259,62.994,123.649
-91.303,63.605,123.301
-89.893,61.936,123.091
-87.959,66.127,126.244
-87.219,66.528,127.427
-86.923,67.998,127.416
-86.51,68.569,126.394
-85.909,65.738,127.517
-84.859,66.345,128.436
-84.919,66.165,129.821
-83.812,67.112,127.931
-83.975,66.73,130.681
-82.857,67.689,128.798
-82.954,67.492,130.169
-82.065,68.1,131.028
-87.105,68.611,128.574
-86.806,70.022,128.732
-85.955,70.153,129.98
-86.338,69.704,131.047
-88.081,70.84,128.853
-88.944,70.486,127.76
-87.768,72.337,128.78
-84.77,70.707,129.837
-83.883,70.851,130.97
-84.442,71.8,132.027
-84.893,72.894,131.706
-82.501,71.302,130.477
-81.516,71.755,131.548
-80.148,72.096,130.98
-79.994,72.259,129.768
-79.153,72.204,131.844
-84.351,71.382,133.29
-84.816,72.16,134.433
-83.671,72.747,135.148
-83.028,72.07,135.927
-85.596,71.288,135.402
-86.806,70.688,134.781
-88.0,71.373,134.688
-86.963,69.551,134.057
-88.835,70.694,133.916
-88.23,69.585,133.522
-83.493,74.042,134.951
-82.406,74.797,135.554
-82.423,74.809,137.086
-81.373,74.984,137.726
-82.433,76.22,135.003
-82.541,76.267,133.479
-81.112,75.485,132.705
-79.697,76.516,133.416
-83.6,74.605,137.679
-83.712,74.576,139.141
-82.939,73.412,139.783
-82.749,73.401,141.009
-85.163,74.484,139.544
-82.52,72.433,138.969
-81.795,71.266,139.459
-80.553,71.646,140.257
-80.196,70.98,141.234
-81.455,70.334,138.328
-82.652,69.984,137.611
-80.835,69.081,138.849
-79.955,72.78,139.918
-78.772,73.235,140.639
-79.11,73.436,142.124
-78.292,73.16,142.994
-78.168,74.531,139.99
-76.894,74.928,140.718
-79.146,75.692,140.018
-75.774,73.941,140.513
-80.337,73.891,142.397
-80.799,74.105,143.761
-80.966,72.765,144.457
-80.699,72.621,145.639
-81.437,71.776,143.725
-81.568,70.455,144.288
-80.189,69.949,144.726
-79.988,69.53,145.859
-82.086,69.493,143.236
-82.077,68.092,143.788
-83.479,69.946,142.74
-79.23,69.999,143.814
-77.88,69.524,144.091
-77.103,70.301,145.16
-76.11,69.794,145.703
-77.086,69.504,142.804
-76.885,68.246,141.982
-77.799,67.134,142.366
-77.053,68.638,140.551
-77.512,71.536,145.445
-76.824,72.326,146.476
-77.432,72.139,147.874
-77.02,72.804,148.805
-76.808,73.804,146.097
-78.428,71.258,147.999
-79.125,70.969,149.265
-78.223,70.083,150.126
-78.054,68.897,149.838
-80.454,70.166,148.999
-81.348,70.942,148.193
-81.155,69.775,150.302
-77.743,70.606,151.259
-76.863,69.841,152.152
-77.432,68.583,152.743
-76.712,67.792,153.321
-76.476,70.854,153.23
-77.604,71.805,153.226
-77.958,71.968,151.771
-78.715,68.352,152.558
-79.306,67.149,153.119
-79.164,65.94,152.229
-79.397,64.821,152.702
-80.769,67.361,153.541
-80.953,68.187,154.83
-80.846,69.703,154.614
-81.416,70.234,153.609
-80.209,70.365,155.474
-78.855,66.138,150.943
-78.653,64.984,150.051
-77.22,64.533,150.298
-76.269,65.295,150.101
-78.777,65.315,148.577
-80.128,65.971,148.289
-78.587,64.028,147.769
-80.377,66.18,146.829
-77.048,63.305,150.787
-75.683,62.834,151.051
-74.952,62.315,149.789
-75.574,62.0,148.77
-75.915,61.728,152.091
-77.208,61.1,151.581
-78.059,62.258,151.057
-73.626,62.345,149.82
-72.83,61.809,148.718
-71.97,60.685,149.308
-71.71,60.657,150.521
-71.984,62.889,148.038
-71.154,63.719,148.982
-69.939,63.242,149.468
-71.577,64.983,149.365
-69.152,64.029,150.339
-70.811,65.778,150.223
-69.591,65.299,150.714
-71.63,59.697,148.498
-70.835,58.59,148.987
-69.319,58.873,149.058
-68.793,59.777,148.411
-71.018,57.385,148.081
-70.649,57.743,146.742
-72.446,56.911,148.098
-68.626,58.068,149.853
-67.182,58.134,149.977
-66.521,58.0,148.576
-65.606,58.759,148.269
-66.691,57.004,150.918
-67.036,57.328,152.264
-65.213,56.834,150.841
-67.008,57.078,147.733
-66.492,56.883,146.369
-66.625,58.169,145.565
-65.637,58.698,145.055
-67.256,55.801,145.616
-67.152,54.395,146.189
-67.617,54.254,147.673
-68.712,54.761,148.067
-66.865,53.602,148.451
-67.828,58.716,145.495
-68.002,59.924,144.719
-67.134,61.077,145.245
-66.516,61.815,144.483
-69.453,60.309,144.691
-67.046,61.201,146.554
-66.296,62.289,147.16
-64.85,62.178,146.757
-64.227,63.143,146.357
-66.411,62.204,148.687
-64.302,60.989,146.929
-62.907,60.733,146.601
-62.584,60.895,145.122
-61.528,61.385,144.747
-62.51,59.36,147.113
-62.224,59.367,148.601
-61.088,59.546,149.024
-63.256,59.222,149.4
-63.529,60.531,144.277
-63.35,60.698,142.856
-63.292,62.2,142.478
-62.399,62.64,141.748
-64.45,59.945,142.168
-64.734,60.416,140.794
-65.638,59.437,140.031
-65.951,58.339,140.634
-65.986,59.778,138.839
-64.169,63.009,143.05
-64.145,64.443,142.768
-62.878,65.085,143.339
-62.317,66.008,142.751
-65.375,65.177,143.349
-66.654,64.577,142.765
-65.351,66.63,142.952
-66.729,64.597,141.239
-62.417,64.626,144.491
-61.204,65.201,145.082
-60.035,64.965,144.126
-59.13,65.805,143.987
-60.919,64.568,146.419
-60.033,63.791,143.51
-59.011,63.497,142.554
-59.093,64.448,141.359
-58.094,65.063,140.982
-59.126,62.083,142.037
-57.893,61.788,141.266
-56.707,61.718,142.245
-56.117,60.434,141.968
-55.929,59.463,142.834
-56.24,59.615,144.1
-55.583,58.274,142.382
-60.262,64.537,140.734
-60.398,65.421,139.597
-59.915,66.816,139.97
-59.113,67.433,139.274
-61.839,65.508,139.113
-61.958,66.538,138.014
-62.287,64.154,138.585
-60.333,67.3,141.117
-59.911,68.629,141.483
-58.422,68.731,141.796
-57.728,69.607,141.292
-60.803,69.156,142.593
-62.068,69.481,142.013
-60.221,70.386,143.262
-57.924,67.794,142.572
-56.533,67.84,142.937
-55.56,67.765,141.784
-54.68,68.62,141.7
-55.712,66.799,140.873
-54.736,66.697,139.795
-54.833,67.793,138.755
-53.843,68.323,138.299
-54.681,65.286,139.162
-55.922,64.782,138.449
-55.994,65.104,136.967
-55.126,65.801,136.435
-56.932,64.648,136.302
-56.045,68.168,138.446
-56.384,69.168,137.458
-55.899,70.561,137.793
-55.619,71.372,136.92
-57.903,69.137,137.405
-58.314,68.62,136.159
-58.544,70.441,137.75
-55.774,70.853,139.068
-55.397,72.189,139.459
-53.894,72.394,139.649
-53.454,73.475,140.047
-56.163,72.536,140.731
-55.714,71.681,141.772
-53.11,71.347,139.431
-51.67,71.444,139.573
-50.976,70.812,138.373
-51.589,70.681,137.32
-51.175,70.882,140.916
-49.846,71.374,141.185
-51.252,69.377,140.982
-49.683,70.517,138.501
-48.876,69.941,137.422
-47.994,68.899,138.04
-47.683,68.972,139.237
-47.965,71.012,136.789
-48.722,72.117,136.108
-49.23,72.126,134.82
-49.188,73.312,136.729
-50.002,73.258,134.628
-49.992,73.996,135.784
-49.016,73.867,138.001
-50.622,75.189,136.079
-49.649,75.058,138.293
-50.44,75.706,137.337
-47.59,67.928,137.235
-46.709,66.88,137.717
-46.094,66.178,136.529
-46.65,66.209,135.421
