x,y,z
-47.071,68.053,130.714
-48.261,68.12,129.894
-49.087,66.928,130.386
-48.534,65.89,130.764
-47.938,67.977,128.404
-47.163,69.149,127.855
-47.556,70.321,128.069
-46.135,68.882,127.209
-50.399,67.102,130.451
-51.263,66.056,130.942
-51.401,64.953,129.934
-51.434,65.219,128.718
-52.65,66.608,131.294
-52.739,67.537,132.519
-52.365,66.845,133.81
-52.849,67.626,135.042
-52.467,69.055,135.074
-51.403,63.719,130.44
-51.576,62.559,129.594
-52.893,61.896,129.994
-53.626,62.401,130.84
-50.444,61.58,129.742
-50.562,60.865,130.975
-49.144,62.311,129.752
-53.216,60.792,129.342
-54.44,60.055,129.615
-54.362,59.26,130.93
-55.278,58.534,131.265
-54.707,59.113,128.451
-55.873,59.407,127.519
-56.275,60.853,127.473
-55.505,58.888,126.176
-53.232,59.33,131.623
-53.076,58.633,132.889
-53.156,59.62,134.04
-52.618,59.343,135.086
-51.717,57.967,133.002
-51.491,56.893,131.965
-50.59,57.012,131.155
-52.255,55.818,132.022
-53.757,60.789,133.836
-53.872,61.792,134.902
-54.947,61.418,135.929
-54.89,61.807,137.102
-54.218,63.145,134.295
-55.427,63.096,133.428
-55.834,64.444,132.906
-56.273,65.303,133.666
-55.727,64.634,131.602
-55.896,60.609,135.476
-57.003,60.167,136.284
-57.156,58.671,136.014
-57.137,58.261,134.868
-58.27,60.947,135.875
-59.483,60.514,136.667
-60.261,59.434,136.226
-59.797,61.102,137.91
-61.292,58.944,136.989
-60.846,60.617,138.681
-61.577,59.534,138.21
-62.562,58.966,138.943
-57.364,57.845,137.065
-57.511,56.4,136.87
-58.509,55.983,135.816
-59.673,56.328,135.881
-57.858,55.867,138.259
-58.103,57.09,139.084
-57.371,58.196,138.497
-58.015,55.202,134.857
-58.772,54.694,133.725
-59.521,55.719,132.896
-60.527,55.376,132.233
-59.663,53.551,134.099
-58.939,56.92,132.78
-59.549,57.991,131.974
-59.901,57.485,130.558
-60.974,57.781,130.015
-58.606,59.185,131.87
-59.237,60.573,131.916
-58.394,61.532,131.101
-60.64,60.542,131.422
-59.006,56.681,129.982
-59.224,56.152,128.65
-60.497,55.313,128.571
-61.295,55.47,127.656
-58.016,55.319,128.183
-56.81,56.031,128.463
-58.08,55.105,126.693
-60.703,54.434,129.545
-61.886,53.591,129.551
-63.153,54.443,129.677
-64.201,54.087,129.113
-61.792,52.61,130.661
-63.071,55.57,130.404
-64.234,56.465,130.549
-64.531,57.154,129.223
-65.694,57.239,128.781
-63.981,57.525,131.629
-63.711,56.935,133.011
-64.73,55.845,133.417
-65.967,56.06,133.264
-64.296,54.79,133.936
-63.477,57.695,128.615
-63.588,58.328,127.313
-64.197,57.336,126.321
-65.126,57.671,125.58
-62.206,58.787,126.809
-61.808,60.052,127.563
-62.286,59.124,125.306
-60.403,60.415,127.467
-63.699,56.106,126.319
-64.238,55.084,125.416
-65.742,54.867,125.616
-66.492,54.7,124.658
-63.514,53.747,125.6
-64.106,52.639,124.781
-64.003,52.644,123.397
-64.818,51.603,125.386
-64.605,51.63,122.628
-65.423,50.591,124.63
-65.314,50.61,123.244
-66.146,54.787,126.877
-67.535,54.594,127.23
-68.403,55.729,126.691
-69.458,55.477,126.136
-67.673,54.504,128.749
-69.074,54.062,129.185
-69.637,54.594,130.147
-69.647,53.102,128.461
-67.97,56.973,126.882
-68.695,58.165,126.404
-68.867,58.188,124.883
-69.926,58.538,124.379
-67.927,59.457,126.766
-68.521,60.644,126.043
-67.868,59.657,128.281
-67.815,57.842,124.145
-67.891,57.883,122.688
-68.458,56.661,122.009
-68.568,56.634,120.795
-66.557,58.299,122.082
-66.188,59.744,122.369
-66.776,60.784,121.662
-65.275,60.076,123.375
-66.478,62.135,121.946
-64.969,61.428,123.667
-65.579,62.438,122.943
-65.279,63.759,123.212
-68.831,55.648,122.776
-69.454,54.475,122.178
-70.805,54.892,121.628
-71.463,55.851,122.098
-69.637,53.364,123.179
-68.374,52.858,123.488
-71.224,54.127,120.642
-72.448,54.401,119.935
-73.723,54.171,120.736
-74.52,55.107,120.894
-72.445,53.566,118.65
-73.674,53.742,117.809
-74.011,55.011,117.293
-74.498,52.646,117.528
-75.159,55.192,116.503
-75.656,52.804,116.741
-75.98,54.092,116.225
-73.897,52.922,121.21
-75.084,52.455,121.963
-76.275,52.364,120.991
-76.672,51.267,120.564
-75.368,53.366,123.172
-74.524,52.929,124.335
-74.523,53.89,125.466
-74.099,53.213,126.688
-72.858,53.207,127.146
-71.924,53.871,126.475
-72.547,52.463,128.213
-76.783,53.521,120.586
-77.858,53.585,119.616
-77.93,55.035,119.164
-77.21,55.919,119.705
-79.205,53.102,120.188
-79.673,53.899,121.428
-79.567,55.149,121.496
-80.18,53.248,122.352
-78.859,55.306,118.259
-78.983,56.655,117.729
-79.327,57.735,118.697
-78.899,58.875,118.524
-79.955,56.692,116.566
-79.498,55.887,115.392
-79.847,54.561,115.219
-78.655,56.194,114.374
-79.234,54.086,114.147
-78.506,55.055,113.618
-80.092,57.388,119.722
-80.486,58.373,120.714
-79.287,58.762,121.582
-78.981,59.957,121.76
-81.676,57.839,121.533
-82.772,57.583,120.638
-82.112,58.851,122.583
-78.545,57.768,122.056
-77.403,58.081,122.88
-76.391,58.87,122.054
-75.794,59.863,122.503
-76.768,56.809,123.382
-75.478,57.105,124.031
-74.225,56.852,123.542
-75.303,57.834,125.233
-73.28,57.404,124.363
-73.913,58.017,125.411
-76.192,58.366,126.178
-73.384,58.71,126.499
-75.674,59.059,127.264
-74.275,59.225,127.416
-76.18,58.387,120.842
-75.269,59.026,119.942
-75.683,60.499,119.726
-74.866,61.434,119.878
-75.236,58.21,118.658
-74.181,58.662,117.705
-72.844,58.657,118.03
-74.274,59.25,116.486
-72.161,59.237,117.06
-73.007,59.604,116.113
-76.97,60.723,119.463
-77.464,62.087,119.284
-77.337,62.951,120.538
-76.901,64.112,120.479
-77.725,62.384,121.678
-77.687,63.069,122.971
-76.255,63.431,123.358
-75.973,64.572,123.767
-78.257,62.13,124.033
-79.035,62.529,125.302
-78.489,61.701,126.445
-78.958,63.985,125.626
-75.361,62.444,123.271
-73.956,62.663,123.606
-73.39,63.777,122.726
-72.758,64.72,123.214
-73.134,61.388,123.443
-71.68,61.623,123.859
-70.722,61.357,122.708
-70.874,60.007,122.156
-71.341,59.745,120.935
-71.693,60.744,120.128
-71.511,58.484,120.545
-73.606,63.667,121.422
-73.156,64.709,120.509
-73.684,66.094,120.92
-72.916,67.06,121.03
-73.658,64.432,119.125
-73.183,63.155,118.714
-73.203,65.503,118.199
-74.989,66.189,121.18
-75.597,67.462,121.595
-74.995,68.024,122.877
-74.789,69.227,122.989
-77.094,67.309,121.756
-74.739,67.172,123.86
-74.15,67.641,125.102
-72.703,68.088,124.857
-72.3,69.154,125.315
-74.199,66.531,126.195
-75.644,66.163,126.512
-73.474,66.967,127.45
-75.771,64.896,127.304
-71.924,67.31,124.111
-70.531,67.689,123.871
-70.373,68.968,123.021
-69.357,69.672,123.145
-69.74,66.505,123.313
-69.443,65.415,124.358
-68.816,64.197,123.75
-68.571,65.945,125.5
-71.393,69.319,122.226
-71.348,70.555,121.406
-71.267,71.806,122.236
-71.001,72.88,121.724
-72.576,70.709,120.5
-72.522,69.788,119.303
-71.431,69.356,118.902
-73.685,69.465,118.727
-71.573,71.678,123.511
-71.579,72.806,124.416
-70.274,72.861,125.178
-70.163,73.586,126.162
-72.741,72.629,125.399
-74.024,73.387,125.107
-74.802,72.963,123.87
-74.693,73.959,122.805
-74.713,75.287,122.972
-74.872,75.862,124.173
-74.405,76.055,121.934
-69.296,72.069,124.748
-67.999,72.009,125.415
-66.842,72.169,124.419
-67.052,72.334,123.21
-67.834,70.656,126.16
-67.615,69.606,125.21
-69.101,70.318,126.971
-65.612,72.101,124.922
-64.44,72.233,124.06
-63.933,70.87,123.629
-62.876,70.756,123.007
-63.319,73.011,124.748
-63.097,72.481,126.055
-63.708,74.469,124.873
-64.711,69.844,123.947
-64.389,68.482,123.612
-65.014,68.124,122.27
-66.011,68.721,121.856
-64.987,67.551,124.66
-64.287,66.909,125.856
-62.896,67.361,126.051
-65.13,67.193,127.083
-64.351,67.244,121.506
-64.924,66.849,120.22
-66.244,66.126,120.516
-66.375,65.416,121.517
-63.862,65.907,119.635
-62.968,65.556,120.809
-62.944,66.813,121.609
-67.22,66.304,119.641
-68.522,65.719,119.851
-68.728,64.262,119.466
-69.731,63.67,119.852
-69.597,66.629,119.267
-69.594,66.643,117.757
-68.925,65.827,117.106
-70.349,67.561,117.18
-67.863,63.678,118.642
-68.061,62.251,118.344
-66.853,61.359,118.206
-66.981,60.148,118.084
-69.122,61.972,117.269
-69.029,62.709,115.969
-70.396,62.125,114.963
-71.518,63.462,115.069
-65.669,61.94,118.318
-64.442,61.151,118.259
-63.591,61.622,119.415
-63.588,62.812,119.741
-63.691,61.361,116.937
-64.374,60.791,115.691
-63.767,61.367,114.457
-64.298,59.29,115.685
-62.931,60.679,120.108
-62.067,61.017,121.245
-61.051,62.062,120.804
-60.58,62.053,119.646
-61.328,59.706,121.534
-62.19,58.621,120.921
-62.875,59.249,119.75
-60.685,62.969,121.715
-59.704,64.014,121.398
-58.323,63.418,121.024
-58.004,62.283,121.347
-59.66,64.837,122.689
-60.077,63.861,123.755
-61.159,63.061,123.107
-57.52,64.176,120.3
-56.205,63.702,119.895
-55.286,63.903,121.072
-54.506,63.036,121.419
-55.708,64.519,118.683
-56.683,64.345,117.531
-54.342,64.071,118.234
-56.398,65.255,116.402
-55.393,65.061,121.705
-54.57,65.347,122.866
-55.447,65.291,124.073
-56.623,65.666,124.009
-53.945,66.724,122.753
-53.075,66.865,121.55
-51.802,66.289,121.532
-53.548,67.508,120.403
-51.02,66.347,120.399
-52.771,67.571,119.26
-51.503,66.986,119.259
-54.921,64.743,125.172
-55.684,64.635,126.417
-56.11,65.993,126.946
-55.389,66.977,126.803
-54.72,63.904,127.363
-53.366,63.992,126.694
-53.664,63.983,125.237
-57.337,66.085,127.477
-57.861,67.35,128.027
-57.04,67.658,129.266
-56.422,66.748,129.85
-59.308,66.999,128.403
-59.619,65.789,127.538
-58.336,65.006,127.552
-57.05,68.9,129.726
-56.228,69.185,130.9
-56.845,70.082,131.964
-56.161,70.477,132.918
-54.887,69.767,130.459
-55.052,71.067,129.74
-54.985,71.107,128.52
-55.334,72.141,130.483
-58.119,70.413,131.797
-58.815,71.262,132.742
-59.907,70.484,133.462
-60.442,69.492,132.939
-59.425,72.464,132.017
-60.343,72.054,130.898
-59.863,71.427,129.933
-61.547,72.343,130.981
-60.252,70.975,134.646
-61.277,70.392,135.479
-62.59,70.135,134.743
-63.118,69.011,134.776
-61.538,71.307,136.671
-62.549,70.776,137.647
-62.777,71.735,138.793
-63.854,71.294,139.683
-65.149,71.397,139.386
-65.535,71.926,138.217
-66.063,70.989,140.263
-63.081,71.14,134.025
-64.354,71.001,133.333
-64.449,69.835,132.364
-65.402,69.028,132.429
-64.751,72.299,132.639
-65.071,73.44,133.625
-65.232,73.23,134.869
-65.158,74.585,133.118
-63.455,69.707,131.496
-63.461,68.625,130.518
-63.427,67.283,131.199
-64.225,66.396,130.865
-62.266,68.762,129.608
-62.3,70.064,129.075
-62.513,67.13,132.157
-62.404,65.86,132.852
-63.718,65.499,133.549
-64.222,64.383,133.405
-61.286,65.893,133.865
-59.974,66.268,133.175
-61.184,64.545,134.52
-59.508,65.23,132.145
-64.289,66.465,134.262
-65.535,66.269,134.98
-66.646,65.847,134.042
-67.375,64.865,134.299
-65.949,67.566,135.627
-66.358,67.564,137.091
-67.517,68.51,137.189
-66.757,66.195,137.567
-66.807,66.618,132.975
-67.828,66.329,131.981
-67.698,64.903,131.426
-68.697,64.217,131.214
-67.757,67.352,130.838
-67.919,68.687,131.36
-68.818,67.083,129.821
-66.471,64.451,131.194
-66.259,63.107,130.686
-66.698,62.109,131.73
-67.445,61.182,131.397
-64.789,62.861,130.287
-64.386,63.663,129.041
-62.902,63.659,128.904
-65.069,63.125,127.803
-66.251,62.28,132.977
-66.636,61.351,134.046
-68.151,61.302,134.25
-68.762,60.228,134.274
-65.969,61.735,135.352
-64.466,61.584,135.242
-63.866,61.855,136.596
-64.121,60.172,134.76
-68.747,62.484,134.343
-70.177,62.614,134.515
-70.945,61.974,133.327
-71.907,61.201,133.518
-70.504,64.098,134.696
-70.841,64.71,136.08
-70.227,63.985,137.211
-70.455,66.166,136.111
-70.491,62.228,132.103
-71.152,61.646,130.932
-71.002,60.129,130.881
-71.913,59.441,130.459
-70.586,62.239,129.668
-71.53,62.985,128.752
-70.753,63.206,127.475
-72.808,62.208,128.466
-69.853,59.606,131.302
-69.614,58.166,131.312
-70.604,57.476,132.246
-71.204,56.447,131.899
-68.183,57.876,131.754
-67.926,56.497,131.582
-70.781,58.05,133.434
-71.744,57.527,134.381
-73.156,57.621,133.774
-73.921,56.647,133.813
-71.685,58.308,135.689
-70.347,58.269,136.18
-72.597,57.68,136.747
-73.506,58.764,133.186
-74.828,58.888,132.573
-75.038,57.816,131.502
-76.162,57.315,131.331
-75.042,60.272,131.983
-76.418,60.578,131.383
-77.443,60.67,132.492
-76.373,61.93,130.643
-73.963,57.409,130.825
-74.08,56.366,129.792
-74.446,55.062,130.454
-75.234,54.277,129.908
-72.818,56.208,129.032
-73.865,54.808,131.622
-74.201,53.579,132.338
-75.663,53.606,132.775
-76.361,52.6,132.657
-73.331,53.404,133.553
-71.899,53.114,133.205
-71.627,52.507,132.14
-71.057,53.452,134.051
-76.128,54.757,133.267
-77.524,54.89,133.669
-78.406,54.625,132.452
-79.371,53.868,132.537
-77.845,56.293,134.228
-79.357,56.449,134.4
-77.153,56.488,135.563
-78.032,55.202,131.309
-78.786,55.023,130.073
-78.911,53.548,129.779
-79.971,53.031,129.381
-78.049,55.678,128.912
-78.805,55.626,127.596
-79.709,56.645,127.244
-78.622,54.564,126.691
-80.419,56.614,126.011
-79.331,54.519,125.463
-80.221,55.548,125.137
-80.91,55.523,123.941
-77.792,52.872,129.915
-77.767,51.453,129.662
-78.71,50.654,130.564
-79.348,49.73,130.069
-76.297,50.942,129.671
-75.749,51.155,128.368
-76.181,49.476,130.021
-78.789,50.967,131.868
-79.704,50.218,132.729
-81.169,50.669,132.634
-82.036,49.818,132.549
-79.205,50.027,134.187
-77.718,50.26,134.269
-79.94,50.849,135.136
-81.445,51.974,132.551
-82.822,52.463,132.421
-83.478,52.253,131.054
-84.694,52.232,130.963
-82.927,53.941,132.81
-82.64,54.188,134.306
-82.825,55.64,134.712
-83.566,53.316,135.12
-82.678,52.108,129.993
-83.157,51.915,128.62
-84.266,52.891,128.229
-85.296,52.475,127.689
-83.667,50.495,128.361
-83.217,49.359,129.272
-82.75,48.146,128.469
-81.36,48.354,128.012
-80.983,48.736,126.781
-81.889,48.956,125.821
-79.691,48.964,126.521
-84.039,54.207,128.399
-85.095,55.157,128.036
-85.32,55.253,126.531
-84.5,54.775,125.746
-84.588,56.464,128.629
-83.138,56.355,128.499
-82.825,54.912,128.851
-86.473,55.798,126.142
-86.847,55.974,124.741
-87.504,57.31,124.582
-88.587,57.552,125.09
-87.836,54.924,124.267
-87.272,53.526,124.161
-88.314,52.525,123.681
-89.166,52.905,122.829
-88.295,51.369,124.173
-86.837,58.196,123.88
-87.387,59.505,123.648
-86.808,60.031,122.352
-85.891,59.431,121.79
-87.112,60.427,124.823
-85.673,60.558,125.159
-85.011,59.544,125.848
-84.97,61.703,124.813
-83.667,59.669,126.189
-83.623,61.842,125.15
-82.976,60.826,125.836
-87.34,61.156,121.893
-86.931,61.761,120.634
-85.968,62.928,120.745
-86.106,63.777,121.628
-88.155,62.204,119.889
-85.025,62.988,119.806
-84.041,64.076,119.74
-84.159,64.705,118.345
-84.308,63.994,117.341
-82.623,63.544,120.005
-82.513,63.136,121.475
-81.601,64.602,119.697
-81.233,62.486,121.838
-84.191,66.03,118.285
-84.33,66.722,116.997
-83.254,66.328,116.006
-82.06,66.359,116.314
-84.306,68.243,117.174
-85.535,68.803,117.816
-86.808,68.341,117.527
-85.686,69.766,118.757
-87.689,68.993,118.272
-87.036,69.863,119.027
-83.684,65.928,114.82
-82.726,65.561,113.802
-82.225,64.138,113.838
-81.48,63.73,112.954
-82.643,63.365,114.829
-82.215,61.982,114.94
-83.323,61.081,114.43
-84.473,61.23,114.81
-81.862,61.643,116.403
-81.56,60.152,116.565
-80.684,62.517,116.869
-82.963,60.133,113.575
-83.928,59.211,112.993
-83.581,57.724,113.185
-82.842,57.144,112.391
-84.054,59.541,111.521
-85.468,59.711,111.12
-86.117,58.752,110.691
-86.005,60.909,111.337
-84.162,57.074,114.21
-83.956,55.662,114.571
-84.137,54.554,113.539
-85.072,54.553,112.739
-84.911,55.473,115.749
-84.973,56.845,116.373
-85.113,57.71,115.141
-83.241,53.587,113.632
-83.261,52.433,112.771
-83.402,51.257,113.713
-82.541,51.013,114.557
-81.977,52.335,111.954
-81.95,53.273,110.762
-80.428,53.127,109.818
-80.459,51.381,109.409
-84.547,50.575,113.638
-84.946,49.395,114.433
-83.82,48.343,114.618
-83.78,47.606,115.621
-86.127,48.84,113.63
-86.761,50.097,113.069
-85.555,50.884,112.603
-82.956,48.232,113.611
-81.823,47.324,113.693
-81.916,45.896,113.192
-82.21,45.683,112.025
-81.629,44.891,114.044
-81.232,45.07,115.45
-79.895,45.796,115.81
-79.433,45.659,116.957
-81.3,43.632,116.012
-80.987,42.776,114.803
-81.797,43.459,113.72
-79.319,46.584,114.883
-78.076,47.346,115.123
-76.813,46.521,114.949
-76.577,45.508,115.621
-78.07,48.029,116.485
-78.461,49.5,116.681
-79.361,50.026,115.592
-79.111,49.645,118.055
-75.964,47.012,114.062
-74.747,46.317,113.702
-73.576,47.269,113.702
-73.745,48.505,113.789
-74.894,45.749,112.28
-75.213,46.822,111.365
-76.011,44.71,112.248
-72.39,46.698,113.533
-71.199,47.522,113.51
-71.247,48.484,112.323
-70.894,49.66,112.448
-69.978,46.638,113.453
-68.696,47.394,113.438
-67.522,46.433,113.522
-66.246,47.072,113.203
-65.072,46.594,113.602
-65.034,45.473,114.341
-63.941,47.209,113.246
-71.781,48.006,111.2
-71.89,48.816,109.979
-72.767,50.049,110.202
-72.429,51.176,109.809
-72.441,47.96,108.849
-73.887,49.826,110.868
-74.815,50.901,111.179
-74.199,51.902,112.176
-74.371,53.124,112.033
-76.126,50.317,111.733
-76.832,49.5,110.646
-77.015,51.425,112.225
-78.057,48.758,111.135
-73.5,51.372,113.183
-72.842,52.194,114.185
-71.808,53.085,113.497
-71.821,54.315,113.676
-72.16,51.311,115.25
-70.938,52.464,112.696
-69.88,53.178,111.986
-70.413,54.311,111.115
-69.84,55.405,111.087
-69.052,52.208,111.143
-68.3,52.872,109.999
-66.812,52.578,110.051
-66.04,53.388,109.095
-66.069,54.731,109.004
-66.847,55.492,109.799
-65.25,55.336,108.142
-71.532,54.066,110.441
-72.126,55.069,109.566
-72.635,56.303,110.283
-72.829,57.355,109.67
-73.248,54.452,108.8
-72.902,56.165,111.575
-73.445,57.261,112.357
-72.432,58.307,112.718
-72.815,59.413,113.122
-74.093,56.734,113.586
-71.149,57.981,112.544
-70.07,58.904,112.884
-69.689,59.824,111.737
-68.511,60.157,111.53
-68.872,58.121,113.392
-69.104,57.549,114.76
-69.884,56.391,114.935
-68.562,58.172,115.892
-70.116,55.86,116.21
-68.784,57.667,117.169
-69.56,56.508,117.316
-69.745,55.989,118.561
-70.739,60.319,111.079
-70.647,61.2,109.927
-70.015,60.399,108.767
-70.554,60.536,107.653
-69.909,62.542,110.291
-69.367,63.254,109.038
-70.877,63.459,111.057
-69.096,59.556,108.981
